I (A),PEM Efficiency (),Power (W),Power-Stack (W),Power-Thermal (W),VStack (V),Vcell (V)
0.1,0.6070918465825977,0.09470632806688527,2.178245545538361,0.650754454461639,21.78245545538361,0.9470632806688526
0.2,0.596983288796134,0.18625878610439384,4.2839520804010585,1.3740479195989417,21.41976040200529,0.9312939305219692
0.3,0.5889668542476844,0.27563648778791633,6.339639219122075,2.1473607808779245,21.132130730406917,0.9187882926263877
0.4,0.5823143704480743,0.3633641671595984,8.357375844670763,2.958624155329237,20.893439611676907,0.908410417898996
0.5,0.576622053314997,0.4497652015856977,10.344599636471047,3.8004003635289525,20.689199272942094,0.8995304031713954
0.6,0.5716425142657562,0.5350573933527478,12.3063200471132,4.6676799528867985,20.510533411855334,0.8917623222545797
0.7,0.5672131517182866,0.6193967616763688,14.246125518556482,5.556874481443514,20.35160788365212,0.884852516680527
0.8,0.5632213484876261,0.7029002429125574,16.16670558698882,6.465294413011179,20.208381983736025,0.8786253036406967
0.9,0.5595858755325545,0.7856585692477064,18.070147092697248,7.390852907302754,20.07794121410805,0.8729539658307849
1.0,0.5562462126792992,0.8677440917797067,19.958114110933252,8.331885889066747,19.958114110933252,0.8677440917797067
1.1,0.5531560572234717,0.9492157941954775,21.831963266495983,9.287036733504017,19.847239333178166,0.8629234492686159
1.2,0.5502791922121564,1.0301226478211567,23.692820899886605,10.255179100113395,19.74401741657217,0.858435539850964
1.3,0.5475867544887774,1.1105059381032407,25.541636576374536,11.235363423625465,19.647412751057335,0.8542353370024928
1.4,0.5450553693735705,1.190400926711878,27.379221314373194,12.226778685626805,19.55658665312371,0.85028637622277
1.5,0.5426658416714328,1.2698380695111529,29.206275598756516,13.228724401243484,19.47085039917101,0.8465587130074352
1.6,0.5404022150580957,1.348843928785007,31.02341036205516,14.24058963794484,19.389631476284475,0.8430274554906293
1.7,0.5382510820424253,1.427441869576512,32.83116300025978,15.261836999740217,19.312448823682224,0.8396716879861836
1.8,0.536201068437617,1.5056526001728283,34.63000980397505,16.29199019602495,19.238894335541694,0.8364736667626824
1.9,0.5342424419218519,1.583494597856369,36.420375750696486,17.330624249303508,19.168618816156048,0.833418209398089
2.0,0.532366810486187,1.6609844487169034,38.20264232048878,18.37735767951122,19.10132116024439,0.8304922243584517
2.1,0.5305668870842597,1.738137122088035,39.97715380802481,19.431846191975197,19.03673990858324,0.8276843438514452
2.2,0.5288363037744284,1.8149661945538385,41.74422247473829,20.49377752526172,18.97464657942649,0.8249846338881083
2.3,0.527169463367337,1.891484034562005,43.504132794926115,21.562867205073875,18.914840345620053,0.8223843628530457
2.4,0.5255614198480028,1.9677019559109223,45.257144985951214,22.638855014048787,18.857143744146338,0.8198758149628843
2.5,0.5240077811244296,2.0436303463852754,47.00349796686133,23.721502033138655,18.801399186744536,0.8174521385541103
2.6,0.5225046292799733,2.1192787763595717,48.74341185627015,24.810588143729856,18.74746609856544,0.8151072216767583
2.7,0.52104845467996,2.194656091111992,50.47709009557581,25.905909904424192,18.695218553916966,0.8128355893007376
2.8,0.5196361011410657,2.269770489784175,52.20472126503602,27.007278734963975,18.644543308941437,0.8106323177800625
2.9,0.5182647200068938,2.3446295933111876,53.926480646157316,28.11451935384268,18.59533815384735,0.8084929632107544
3.0,0.5169317314482642,2.4192405031778765,55.64253157309116,29.22746842690884,18.54751052436372,0.8064135010592922
3.1,0.515634791665824,2.4936098524959247,57.35302660740627,30.345973392593724,18.500976324969766,0.8043902749986854
3.2,0.514371764946645,2.5677438506136525,59.05810856411401,31.469891435885998,18.455658926285626,0.8024199533167663
3.3,0.5131406997374682,2.6416483222484866,60.75791141171519,32.5990885882848,18.411488306580363,0.8004994915904505
3.4,0.5119398080610783,2.7153287419559593,62.452561064987066,33.73343893501293,18.36840031323149,0.7986261005752822
3.5,0.5107674477304784,2.788790264608412,64.14217608599348,34.872823914006524,18.326336024569564,0.7967972184595463
3.6,0.5096221069165698,2.862037752443456,65.82686830619949,36.017131693800515,18.285241196166524,0.7950104867898489
3.7,0.5085023907052405,2.935075799150648,67.50674338046491,37.16625661953508,18.24506577850403,0.7932637295001752
3.8,0.5074070093438323,3.007908751390238,69.18190128197547,38.32009871802452,18.205763495256704,0.7915549345763785
3.9,0.5063347679284521,3.080540728076703,70.85243674576417,39.47856325423582,18.167291473272865,0.7898822379683854
4.0,0.5052845573252364,3.1529756377094746,72.51843966731792,40.641560332682076,18.12960991682948,0.7882439094273687
4.1,0.5042553461525208,3.225217193991523,74.17999546180504,41.80900453819495,18.09268181995245,0.7866383399979325
4.2,0.5032461736785444,3.297268929941823,75.83718538866192,42.98081461133807,18.056472711586174,0.7850640309385293
4.3,0.5022561435120266,3.369134210678675,77.49008684560953,44.15691315439047,18.020950429211517,0.7835195838787616
4.4,0.5012844179817214,3.440816245026536,79.13877363561032,45.33722636438969,17.98608491718416,0.7820036920514853
4.5,0.5003302131165906,3.5123180960784666,80.78331620980472,46.52168379019527,17.951848046623272,0.7805151324618814
4.6,0.49939279415118687,3.583642690828917,82.42378188906508,47.7102181109349,17.918213454144585,0.7790527588758516
4.7,0.49847147149164955,3.6547928289767744,84.06023506646581,48.90276493353418,17.885156397120387,0.7776154955269733
4.8,0.4975655970868098,3.7257711909860323,85.69273739267874,50.09926260732126,17.852653623474737,0.7762023314554234
4.9,0.4966745611565416,3.796580345480604,87.32134794605389,51.2996520539461,17.820683254296714,0.7748123154042049
5.0,0.49579778923597145,3.8672227560405776,88.94612338893329,52.503876611066715,17.789224677786656,0.7734445512081155
5.1,0.4949347394996449,3.9377007874591743,90.56711811156102,53.711881888438974,17.758258453247258,0.772098193619446
5.2,0.49408490033442143,4.008016711512827,92.18438436479502,54.92361563520499,17.72776622399904,0.7707724445216975
5.3,0.49324778813385933,4.078172712290749,93.79797238268723,56.13902761731276,17.697730638242874,0.7694665494888207
5.4,0.4924229452902696,4.148170891125232,95.40793049588034,57.35806950411968,17.668135277014873,0.7681797946528206
5.5,0.4916099383635533,4.218013271159287,97.0143052366636,58.58069476333639,17.638964588484292,0.7669115038471431
5.6,0.49080835640847037,4.287701801584397,98.61714143644113,59.80685856355884,17.61020382793592,0.7656610359972138
5.7,0.4900178094441672,4.357238361577535,100.2164823162833,61.0365176837167,17.581839002856718,0.7644277827329008
5.8,0.4892379270516898,4.426624763963689,101.81236957116485,62.269630428835136,17.55385682261463,0.7632111662006361
5.9,0.4884683570868489,4.495862758627358,103.40484344842923,63.50615655157077,17.52624465227614,0.7620106370554843
6.0,0.48770876449723627,4.564954035694132,104.99394282096505,64.74605717903495,17.49899047016084,0.7608256726156887
6.1,0.4869588302334399,4.633900228501414,106.57970525553252,65.98929474446746,17.472082828775825,0.7596557751641663
6.2,0.4862182502455986,4.70270291637543,108.16216707663489,67.23583292336511,17.445510818812078,0.7585004703831338
6.3,0.48548673455739133,4.771363627230042,109.74136342629097,68.48563657370902,17.419264035919202,0.7573593059095305
6.4,0.4847640064104014,4.839883840001448,111.31732832003331,69.73867167996671,17.3933325500052,0.7562318500002262
6.5,0.4840498014725325,4.90826498693148,112.89009469942403,70.99490530057598,17.367706876834465,0.7551176902971507
6.6,0.483343867104807,4.976508455711093,114.45969448135513,72.25430551864486,17.342377951720476,0.7540164326834989
6.7,0.48264596168145596,5.044615591494578,116.0261586043753,73.51684139562471,17.31733710513064,0.7529277002230713
6.8,0.4819558539587174,5.112587698794075,117.58951707226372,74.78248292773628,17.29257604003878,0.7518511321755992
6.9,0.4812733224882165,5.1804260432631635,119.14979899505276,76.05120100494725,17.26808681087721,0.7507863830816178
7.0,0.4805981550712,5.2481318533775045,120.70703262768261,77.32296737231738,17.24386180395466,0.7497331219110721
7.1,0.4799301482502582,5.31570632201986,122.26124540645678,78.59775459354321,17.219893719219264,0.7486910312704028
7.2,0.4792691068354869,5.383150607976189,123.81246398345235,79.87553601654763,17.196175553257273,0.7476598066633596
7.3,0.4786148434623254,5.450465837348962,125.36071425902612,81.15628574097389,17.172700583428234,0.7466391558012276
7.4,0.4779671781785626,5.517653104893327,126.90602141254652,82.4399785874535,17.149462353046825,0.7456287979585576
7.5,0.47732593805823526,5.584713475281353,128.4484099314711,83.72659006852888,17.126454657529482,0.744628463370847
7.6,0.4766909568403395,5.651647984299065,129.9879036388785,85.0160963611215,17.10367153143138,0.7436378926709296
7.7,0.4760620745904702,5.718457639980728,131.52452571955675,86.30847428044328,17.081107236306067,0.7426568363611334
7.8,0.47543913738366156,5.785143423684394,133.05829874474105,87.60370125525893,17.05875624932578,0.7416850543185121
7.9,0.47482199700685623,5.851706291112496,134.5892446955874,88.9017553044126,17.036613252606,0.7407223153306957
8.0,0.47421051067956177,5.918147173280931,136.11738498546143,90.20261501453857,17.01467312318268,0.7397683966601164
8.1,0.4736045407913766,5.984466977439834,137.6427404811162,91.5062595188838,16.992930923594592,0.7388230836345475
8.2,0.47300395465517836,6.050666587949041,139.16533152282796,92.81266847717202,16.9713818930278,0.7378861692620783
8.3,0.4724086242748654,6.116746867110957,140.68517794355202,94.121822056448,16.95002143898217,0.73695745386879
8.4,0.4718184261266338,6.18270865596341,142.20229908715842,95.43370091284157,16.92884512942362,0.7360367447575488
8.5,0.47123324095285596,6.24855277503487,143.716713825802,96.74828617419797,16.907848685388473,0.7351238558864553
8.6,0.4706529535676952,6.314280025064199,145.22844057647657,98.0655594235234,16.887027974008905,0.7342186075656045
8.7,0.4700774526736686,6.37989118768703,146.7374973168017,99.38550268319827,16.866379001931232,0.7333208261709231
8.8,0.4695066306884237,6.445387026090682,148.24390160008568,100.70809839991435,16.845897909100643,0.732430343873941
8.9,0.4689403835810528,6.510768285639337,149.74767056970475,102.03332943029524,16.825580962888175,0.7315469983864423
9.0,0.46837861071732473,6.57603569447124,151.2488209728385,103.36117902716148,16.805424552537612,0.7306706327190267
9.1,0.4678212147132561,6.641189964069383,152.7473691735958,104.69163082640415,16.78542518391163,0.7298010949526795
9.2,0.46726810129648605,6.706231789807167,154.24333116556485,106.02466883443512,16.76557947451792,0.7289382380225182
9.3,0.46671917917496575,6.771161851470404,155.73672258381927,107.36027741618074,16.74588414879777,0.7280819195129465
9.4,0.46617435991249906,6.835980813756886,157.22755871640837,108.6984412835916,16.726336033660466,0.7272320014634985
9.5,0.46563355781071375,6.900689326754778,158.7158545153599,110.03914548464012,16.70693205424841,0.7263883501847135
9.6,0.46509668979706664,6.96528802640087,160.20162460722003,111.38237539277999,16.68766922991875,0.725550836083424
9.7,0.4645636753185162,7.029777534919787,161.6848833031551,112.72811669684485,16.668544670428364,0.7247193334968853
9.8,0.4640344362405236,7.094158461245126,163.1656446086379,114.07635539136214,16.649555572309986,0.7238937205352168
9.9,0.46350889675106255,7.158431401423411,164.64392223273845,115.42707776726154,16.630699215428127,0.7230738789316576
10.0,0.4629869832693446,7.222596939001776,166.11972959704084,116.78027040295913,16.611972959704087,0.7222596939001776
10.1,0.46246862435898434,7.286655645400156,167.5930798442036,118.13592015579637,16.59337424200036,0.7214510540000155
10.2,0.46195375064534594,7.350608080268744,169.0639858461811,119.49401415381885,16.574900573155013,0.7206478510067397
10.3,0.4614422947368356,7.414454791831476,170.53246021212394,120.85453978787605,16.556549535157664,0.7198499797894636
10.4,0.4609341911499122,7.478196317216175,171.99851529597203,122.21748470402798,16.538318778458848,0.719057338193863
10.5,0.4604293762376078,7.541833182772017,173.46216320375638,123.58283679624363,16.520206019405368,0.7182698269306682
10.6,0.4599277881213669,7.605365904374922,174.92341580062322,124.95058419937678,16.502209037794643,0.7174873494693323
10.7,0.45942936662601425,7.668794987721429,176.38228471759288,126.3207152824071,16.48432567454139,0.7167098119365822
10.8,0.45893405321768665,7.732120928611586,177.83878135806648,127.69321864193356,16.466553829450596,0.7159371230195912
10.9,0.45844179094456544,7.795344213221391,179.29291690409198,129.068083095908,16.44889145909101,0.7151691938735221
11.0,0.45795252438025824,7.858465318365233,180.74470232240034,130.44529767759963,16.43133657476367,0.714405938033203
11.1,0.4574661995696921,7.921484711748789,182.19414837022214,131.8248516297778,16.413887240560555,0.7136472713287197
11.2,0.456982763977383,7.984402852212836,183.64126560089522,133.20673439910473,16.396541571508504,0.7128931118047175
11.3,0.45650216643795805,8.047220189968325,185.08606436927147,134.59093563072852,16.379297731793937,0.7121433796432146
11.4,0.4560243571088157,8.10993716682318,186.52855483693313,135.97744516306688,16.36215393306431,0.7113979970897526
11.5,0.45554928742481043,8.1725542164011,187.9687469772253,137.36625302277469,16.3451084328022,0.7106568883827044
11.6,0.4550769100548624,8.23507176435279,189.4066505801142,138.7573494198858,16.328159532768463,0.7099199796855854
11.7,0.45460717886039226,8.297490228559878,190.8422752568772,140.15072474312274,16.311305577510876,0.709187199022212
11.8,0.45414004885549164,8.359810019331892,192.27563044463352,141.5463695553665,16.29454495293504,0.708458476214567
11.9,0.4536754761687415,8.422031539596517,193.7067254107199,142.9442745892801,16.277876084934444,0.7077337428232368
12.0,0.4532134180065979,8.484155185083514,195.13556925692083,144.34443074307916,16.261297438076735,0.7070129320902928
12.1,0.45275383261826935,8.546181344502452,196.5621709235564,145.74682907644356,16.244807514343506,0.7062959788845002
12.2,0.45229667926201134,8.6081103997146,197.9865391934358,147.1514608065642,16.228404851920967,0.7055828196487377
12.3,0.45184191817277225,8.669942725899155,199.40868269568057,148.55831730431944,16.21208802403907,0.7048733923495247
12.4,0.4513895105311251,8.731678691714084,200.82860990942393,149.96739009057606,16.19585563785677,0.7041676364285552
12.5,0.45093941843342356,8.79331865945176,202.24632916739048,151.37867083260952,16.179706333391238,0.7034654927561408
12.6,0.450491604863127,8.854862985189623,203.66184865936134,152.79215134063864,16.163638782488995,0.7027669035864781
12.7,0.4500460336632363,8.916312018936038,205.07517643552887,154.2078235644711,16.14765168783692,0.7020718125146487
12.8,0.4496026695097947,8.977666104771583,206.4863204097464,155.6256795902536,16.131743782011437,0.7013801644352798
12.9,0.4491614778863981,9.038925580985875,207.89528836267513,157.04571163732484,16.115913826563965,0.700691905502781
13.0,0.44872242505967497,9.10009078021021,209.3020879448348,158.4679120551652,16.10016061114114,0.700006983093093
13.1,0.44828547805568775,9.161162029546034,210.70672667955878,159.89227332044118,16.084482952638076,0.6993253457668729
13.2,0.44785060463721715,9.222139650689575,212.10921196586023,161.3187880341397,16.068879694383355,0.6986469432340588
13.3,0.4474177732818887,9.283023960052628,213.50955108121045,162.7474489187896,16.053349705354165,0.6979717263197464
13.4,0.4469869531611036,9.34381526887971,214.90775118423335,164.1782488157667,16.037891879420396,0.6972996469313216
13.5,0.44655811411974133,9.404513883361753,216.30381931732032,165.61118068267967,16.02250513461632,0.6966306580267966
13.6,0.44613122665659743,9.46512010474637,217.69776240916653,167.04623759083344,16.007188412438715,0.695964713584292
13.7,0.44570626190552604,9.525634229444902,219.08958727723277,168.48341272276724,15.991940677170273,0.6953017685726206
13.8,0.4452831916172575,9.58605654913632,220.47930063013536,169.92269936986466,15.976760915227198,0.6946417789229217
13.9,0.444861988141861,9.646387350868114,221.86690906996662,171.36409093003337,15.961648134529973,0.6939847015013032
14.0,0.4444426244118254,9.706626917154269,223.25241909454817,172.80758090545183,15.946601363896297,0.6933304940824477
14.1,0.44402507392573376,9.76677552607044,224.63583709962012,174.25316290037986,15.931619652455328,0.6926791153241447
14.2,0.44360931073250287,9.826833451346404,226.0171693809673,175.70083061903267,15.916702069082204,0.6920305247427045
14.3,0.44319530941616975,9.886800962455915,227.39642213648605,177.15057786351394,15.901847701852171,0.6913846826892248
14.4,0.4427830450811979,9.946678324704031,228.7736014681927,178.6023985318073,15.887055657513383,0.6907415503266688
14.5,0.4423724933382852,10.006465799312013,230.1487133841763,180.0562866158237,15.872325060977674,0.690101089607725
14.6,0.4419636302906504,10.066163643499854,231.52176380049664,181.51223619950335,15.857655054828538,0.6894632632534147
14.7,0.4415564325207822,10.125772110566578,232.89275854303128,182.9702414569687,15.843044798845666,0.6888280347324203
14.8,0.4411508770776287,10.185291449968293,234.26170334927073,184.43029665072928,15.82849346954532,0.6881953682411008
14.9,0.44074694146421356,10.24472190739418,235.62860387006612,185.89239612993387,15.814000259735982,0.6875652286841731
15.0,0.4403446036256577,10.30406372484039,236.99346567132898,187.35653432867102,15.799564378088599,0.686937581656026
15.1,0.4399438419375946,10.363317140681978,238.3562942356855,188.8227057643145,15.785185048720894,0.6863123934226476
15.2,0.43954463519496206,10.42248238974294,239.71709496408764,190.29090503591235,15.770861510795239,0.6856896309041408
15.3,0.43914696260115443,10.481559703364356,241.07587317738017,191.76112682261981,15.756593018129424,0.685069261657801
15.4,0.4387508037575254,10.54054930947079,242.43263411782817,193.2333658821718,15.742378838820013,0.6844512538617397
15.5,0.4383561386532225,10.59945143263492,243.78738295060316,194.7076170493968,15.728218254877625,0.6838355762990271
15.6,0.4379629476553464,10.65826629414051,245.14012476523175,196.1838752347682,15.71411056187383,0.6832221983423404
15.7,0.43757121149941824,10.716994112043752,246.49086457700628,197.66213542299369,15.700055068599127,0.6826110899390925
15.8,0.4371809112801454,10.775635101233025,247.83960732835956,199.14239267164044,15.686051096731617,0.6820022215970268
15.9,0.43679202844247544,10.83418947348716,249.1863578902047,200.62464210979527,15.67209798051602,0.6813955643702617
16.0,0.43640454477292495,10.892657437532206,250.53112106324073,202.10887893675925,15.658195066452546,0.6807910898457629
16.1,0.4360184423911754,10.951039199096762,251.87390157922553,203.5950984207745,15.644341712995374,0.6801887701302336
16.2,0.4356337037419256,11.009334960965944,253.21470410221673,205.08329589778324,15.630537290260293,0.679588577837404
16.3,0.4352503115869912,11.067544923034013,254.55353322978232,206.5734667702177,15.616781179741245,0.6789904860757063
16.4,0.4348682489976418,11.12566928235567,255.89039349418042,208.06560650581955,15.603072774035391,0.6783944684363213
16.5,0.4344874993471684,11.183708233196114,257.2252893635106,209.55971063648937,15.589411476576402,0.6778004989815827
16.6,0.43410804630367195,11.241661967079889,258.55822524283747,211.05577475716257,15.575796701375749,0.6772085522337282
16.7,0.4337298738230656,11.299530672838506,259.8892054752856,212.55379452471436,15.562227872771594,0.6766186031639824
16.8,0.43335296614228275,11.357314536656949,261.2182343431098,214.0537656568902,15.548704425185107,0.6760306271819612
16.9,0.43297730777268395,11.415013742119038,262.54531606873786,215.55568393126205,15.5352258028839,0.675444600125387
17.0,0.4326028834936558,11.47262847025175,263.87045481579025,217.05954518420972,15.521791459752368,0.674860498250103
17.1,0.432229678346394,11.530158899568406,265.19365469007334,218.56534530992667,15.508400859068615,0.6742782982203746
